
5.0000    41
5.0500    37
5.1000    36
5.1500    49
5.2000    30
5.2500    48
5.3000    29
5.3500    32
5.4000    38
5.4500    31
5.5000    54
5.5500    33
5.6000    38
5.6500    33
5.7000    38
5.7500    34
5.8000    33
5.8500    30
5.9000    47
5.9500    36
6.0000    29
6.0500    24
6.1000    33
6.1500    38
6.2000    28
6.2500    36
6.3000    39
6.3500    36
6.4000    28
6.4500    26
6.5000    35
6.5500    29
6.6000    26
6.6500    27
6.7000    16
6.7500    35
6.8000    31
6.8500    19
6.9000    28
6.9500    25
7.0000    34
7.0500    27
7.1000    26
7.1500    27
7.2000    28
7.2500    25
7.3000    23
7.3500    23
7.4000    35
7.4500    27
7.5000    30
7.5500    24
7.6000    20
7.6500    26
7.7000    25
7.7500    23
7.8000    32
7.8500    23
7.9000    29
7.9500    26
8.0000    32
8.0500    26
8.1000    29
8.1500    20
8.2000    22
8.2500    20
8.3000    21
8.3500    23
8.4000    21
8.4500    13
8.5000    28
8.5500    19
8.6000    24
8.6500    18
8.7000    14
8.7500    23
8.8000    20
8.8500    17
8.9000    20
8.9500    17
9.0000    20
9.0500    12
9.1000    20
9.1500    29
9.2000    9
9.2500    24
9.3000    17
9.3500    25
9.4000    26
9.4500    21
9.5000    21
9.5500    15
9.6000    12
9.6500    23
9.7000    11
9.7500    12
9.8000    15
9.8500    12
9.9000    18
9.9500    19
10.0000   12
10.0500   20
10.1000   16
10.1500   26
10.2000   7
10.2500   19
10.3000   14
10.3500   14
10.4000   17
10.4500   15
10.5000   20
10.5500   24
10.6000   13
10.6500   13
10.7000   17
10.7500   15
10.8000   18
10.8500   19
10.9000   19
10.9500   19
11.0000   21
11.0500   17
11.1000   18
11.1500   11
11.2000   21
11.2500   22
11.3000   22
11.3500   30
11.4000   19
11.4500   18
11.5000   21
11.5500   26
11.6000   25
11.6500   25
11.7000   12
11.7500   12
11.8000   18
11.8500   16
11.9000   21
11.9500   10
12.0000   14
12.0500   18
12.1000   21
12.1500   16
12.2000   21
12.2500   21
12.3000   26
12.3500   20
12.4000   30
12.4500   25
12.5000   34
12.5500   40
12.6000   60
12.6500   43
12.7000   31
12.7500   42
12.8000   24
12.8500   22
12.9000   15
12.9500   15
13.0000   11
13.0500   10
13.1000   16
13.1500   20
13.2000   14
13.2500   22
13.3000   22
13.3500   21
13.4000   19
13.4500   18
13.5000   24
13.5500   25
13.6000   31
13.6500   45
13.7000   43
13.7500   47
13.8000   68
13.8500   99
13.9000   118
13.9500   175
14.0000   185
14.0500   147
14.1000   105
14.1500   42
14.2000   25
14.2500   21
14.3000   31
14.3500   21
14.4000   17
14.4500   16
14.5000   19
14.5500   24
14.6000   11
14.6500   29
14.7000   11
14.7500   12
14.8000   14
14.8500   11
14.9000   14
14.9500   16
15.0000   17
15.0500   11
15.1000   22
15.1500   20
15.2000   23
15.2500   18
15.3000   19
15.3500   12
15.4000   24
15.4500   17
15.5000   20
15.5500   21
15.6000   16
15.6500   16
15.7000   15
15.7500   19
15.8000   19
15.8500   15
15.9000   26
15.9500   19
16.0000   11
16.0500   17
16.1000   19
16.1500   20
16.2000   19
16.2500   14
16.3000   24
16.3500   13
16.4000   18
16.4500   22
16.5000   20
16.5500   22
16.6000   22
16.6500   26
16.7000   20
16.7500   20
16.8000   11
16.8500   16
16.9000   15
16.9500   15
17.0000   14
17.0500   25
17.1000   21
17.1500   26
17.2000   13
17.2500   18
17.3000   20
17.3500   20
17.4000   18
17.4500   18
17.5000   12
17.5500   22
17.6000   14
17.6500   26
17.7000   26
17.7500   18
17.8000   11
17.8500   22
17.9000   24
17.9500   29
18.0000   17
18.0500   23
18.1000   24
18.1500   21
18.2000   20
18.2500   23
18.3000   26
18.3500   24
18.4000   22
18.4500   23
18.5000   13
18.5500   21
18.6000   29
18.6500   34
18.7000   26
18.7500   21
18.8000   22
18.8500   23
18.9000   15
18.9500   31
19.0000   31
19.0500   33
19.1000   42
19.1500   29
19.2000   23
19.2500   20
19.3000   26
19.3500   41
19.4000   27
19.4500   24
19.5000   23
19.5500   37
19.6000   40
19.6500   50
19.7000   65
19.7500   102
19.8000   142
19.8500   164
19.9000   160
19.9500   138
20.0000   95
20.0500   56
20.1000   44
20.1500   35
20.2000   31
20.2500   40
20.3000   25
20.3500   30
20.4000   47
20.4500   42
20.5000   26
20.5500   45
20.6000   37
20.6500   33
20.7000   27
20.7500   29
20.8000   41
20.8500   34
20.9000   38
20.9500   44
21.0000   35
21.0500   58
21.1000   39
21.1500   50
21.2000   48
21.2500   52
21.3000   47
21.3500   44
21.4000   44
21.4500   26
21.5000   30
21.5500   35
21.6000   37
21.6500   41
21.7000   36
21.7500   40
21.8000   42
21.8500   45
21.9000   42
21.9500   35
22.0000   47
22.0500   37
22.1000   38
22.1500   48
22.2000   37
22.2500   50
22.3000   45
22.3500   37
22.4000   45
22.4500   55
22.5000   33
22.5500   49
22.6000   40
22.6500   35
22.7000   51
22.7500   57
22.8000   40
22.8500   44
22.9000   28
22.9500   50
23.0000   53
23.0500   31
23.1000   43
23.1500   55
23.2000   52
23.2500   55
23.3000   53
23.3500   41
23.4000   51
23.4500   45
23.5000   45
23.5500   48
23.6000   63
23.6500   53
23.7000   42
23.7500   38
23.8000   34
23.8500   46
23.9000   53
23.9500   33
24.0000   51
24.0500   45
24.1000   71
24.1500   53
24.2000   53
24.2500   70
24.3000   86
24.3500   108
24.4000   125
24.4500   107
24.5000   103
24.5500   62
24.6000   48
24.6500   43
24.7000   43
24.7500   52
24.8000   42
24.8500   42
24.9000   43
24.9500   56
25.0000   46
25.0500   50
25.1000   48
25.1500   35
25.2000   43
25.2500   61
25.3000   53
25.3500   41
25.4000   52
25.4500   61
25.5000   40
25.5500   57
25.6000   48
25.6500   54
25.7000   49
25.7500   52
25.8000   39
25.8500   46
25.9000   39
25.9500   40
26.0000   54
26.0500   42
26.1000   49
26.1500   41
26.2000   51
26.2500   48
26.3000   60
26.3500   68
26.4000   64
26.4500   49
26.5000   49
26.5500   49
26.6000   51
26.6500   57
26.7000   47
26.7500   39
26.8000   63
26.8500   48
26.9000   49
26.9500   44
27.0000   50
27.0500   44
27.1000   30
27.1500   44
27.2000   53
27.2500   46
27.3000   49
27.3500   48
27.4000   52
27.4500   52
27.5000   53
27.5500   46
27.6000   54
27.6500   50
27.7000   44
27.7500   57
27.8000   60
27.8500   45
27.9000   54
27.9500   65
28.0000   46
28.0500   90
28.1000   107
28.1500   157
28.2000   206
28.2500   196
28.3000   169
28.3500   119
28.4000   86
28.4500   55
28.5000   58
28.5500   66
28.6000   65
28.6500   61
28.7000   56
28.7500   50
28.8000   43
28.8500   38
28.9000   48
28.9500   53
29.0000   47
29.0500   35
29.1000   49
29.1500   42
29.2000   46
29.2500   40
29.3000   48
29.3500   42
29.4000   52
29.4500   39
29.5000   45
29.5500   59
29.6000   59
29.6500   42
29.7000   51
29.7500   53
29.8000   50
29.8500   52
29.9000   58
29.9500   64
30.0000   65
30.0500   94
30.1000   69
30.1500   80
30.2000   91
30.2500   73
30.3000   94
30.3500   85
30.4000   81
30.4500   69
30.5000   59
30.5500   64
30.6000   50
30.6500   51
30.7000   51
30.7500   42
30.8000   55
30.8500   65
30.9000   54
30.9500   64
31.0000   39
31.0500   46
31.1000   52
31.1500   48
31.2000   47
31.2500   55
31.3000   57
31.3500   47
31.4000   56
31.4500   70
31.5000   90
31.5500   140
31.6000   174
31.6500   223
31.7000   276
31.7500   249
31.8000   197
31.8500   132
31.9000   91
31.9500   60
32.0000   42
32.0500   53
32.1000   44
32.1500   36
32.2000   41
32.2500   44
32.3000   33
32.3500   32
32.4000   32
32.4500   42
32.5000   43
32.5500   36
32.6000   52
32.6500   49
32.7000   42
32.7500   30
32.8000   45
32.8500   38
32.9000   51
32.9500   42
33.0000   50
33.0500   34
33.1000   33
33.1500   39
33.2000   42
33.2500   37
33.3000   43
33.3500   35
33.4000   35
33.4500   31
33.5000   36
33.5500   50
33.6000   42
33.6500   35
33.7000   31
33.7500   37
33.8000   46
33.8500   31
33.9000   34
33.9500   44
34.0000   34
34.0500   31
34.1000   37
34.1500   37
34.2000   36
34.2500   52
34.3000   41
34.3500   35
34.4000   40
34.4500   32
34.5000   29
34.5500   35
34.6000   42
34.6500   58
34.7000   59
34.7500   103
34.8000   124
34.8500   110
34.9000   85
34.9500   70
35.0000   70
35.0500   52
35.1000   60
35.1500   59
35.2000   66
35.2500   47
35.3000   57
35.3500   59
35.4000   52
35.4500   45
35.5000   37
35.5500   38
35.6000   38
35.6500   41
35.7000   39
35.7500   24
35.8000   40
35.8500   34
35.9000   32
35.9500   31
36.0000   32
36.0500   24
36.1000   33
36.1500   30
36.2000   32
36.2500   26
36.3000   41
36.3500   26
36.4000   25
36.4500   23
36.5000   25
36.5500   42
36.6000   29
36.6500   29
36.7000   26
36.7500   30
36.8000   20
36.8500   35
36.9000   32
36.9500   41
37.0000   29
37.0500   31
37.1000   30
37.1500   39
37.2000   36
37.2500   24
37.3000   31
37.3500   28
37.4000   27
37.4500   39
37.5000   37
37.5500   20
37.6000   36
37.6500   34
37.7000   30
37.7500   22
37.8000   24
37.8500   25
37.9000   26
37.9500   29
38.0000   17
38.0500   34
38.1000   30
38.1500   29
38.2000   38
38.2500   33
38.3000   33
38.3500   13
38.4000   29
38.4500   23
38.5000   30
38.5500   30
38.6000   34
38.6500   44
38.7000   44
38.7500   40
38.8000   30
38.8500   40
38.9000   31
38.9500   43
39.0000   34
39.0500   26
39.1000   30
39.1500   22
39.2000   30
39.2500   30
39.3000   30
39.3500   38
39.4000   39
39.4500   33
39.5000   32
39.5500   32
39.6000   38
39.6500   32
39.7000   30
39.7500   39
39.8000   30
39.8500   25
39.9000   30
39.9500   30
40.0000   36
40.0500   39
40.1000   50
40.1500   60
40.2000   73
40.2500   88
40.3000   145
40.3500   249
40.4000   311
40.4500   331
40.5000   239
40.5500   171
40.6000   103
40.6500   65
40.7000   42
40.7500   50
40.8000   42
40.8500   38
40.9000   38
40.9500   41
41.0000   22
41.0500   29
41.1000   33
41.1500   32
41.2000   40
41.2500   34
41.3000   38
41.3500   35
41.4000   34
41.4500   35
41.5000   26
41.5500   32
41.6000   30
41.6500   37
41.7000   28
41.7500   32
41.8000   26
41.8500   41
41.9000   28
41.9500   21
42.0000   25
42.0500   34
42.1000   23
42.1500   26
42.2000   30
42.2500   33
42.3000   23
42.3500   48
42.4000   30
42.4500   38
42.5000   37
42.5500   31
42.6000   35
42.6500   36
42.7000   33
42.7500   41
42.8000   47
42.8500   69
42.9000   100
42.9500   115
43.0000   132
43.0500   103
43.1000   109
43.1500   68
43.2000   49
43.2500   35
43.3000   38
43.3500   26
43.4000   36
43.4500   30
43.5000   35
43.5500   29
43.6000   21
43.6500   36
43.7000   28
43.7500   33
43.8000   22
43.8500   21
43.9000   21
43.9500   41
44.0000   29
44.0500   37
44.1000   31
44.1500   35
44.2000   34
44.2500   37
44.3000   22
44.3500   37
44.4000   33
44.4500   37
44.5000   30
44.5500   25
44.6000   30
44.6500   32
44.7000   35
44.7500   23
44.8000   34
44.8500   30
44.9000   31
44.9500   25
45.0000   27
45.0500   19
45.1000   33
45.1500   30
45.2000   34
45.2500   31
45.3000   26
45.3500   32
45.4000   33
45.4500   35
45.5000   36
45.5500   28
45.6000   35
45.6500   26
45.7000   19
45.7500   30
45.8000   21
45.8500   27
45.9000   24
45.9500   26
46.0000   22
46.0500   26
46.1000   23
46.1500   27
46.2000   13
46.2500   30
46.3000   25
46.3500   18
46.4000   30
46.4500   30
46.5000   31
46.5500   28
46.6000   24
46.6500   28
46.7000   27
46.7500   33
46.8000   30
46.8500   32
46.9000   20
46.9500   32
47.0000   28
47.0500   19
47.1000   21
47.1500   27
47.2000   21
47.2500   18
47.3000   27
47.3500   34
47.4000   29
47.4500   29
47.5000   18
47.5500   33
47.6000   20
47.6500   28
47.7000   30
47.7500   23
47.8000   27
47.8500   34
47.9000   31
47.9500   32
48.0000   30
48.0500   25
48.1000   26
48.1500   28
48.2000   31
48.2500   38
48.3000   20
48.3500   16
48.4000   19
48.4500   15
48.5000   23
48.5500   19
48.6000   28
48.6500   28
48.7000   26
48.7500   32
48.8000   26
48.8500   23
48.9000   29
48.9500   22
49.0000   22
49.0500   26
49.1000   22
49.1500   21
49.2000   26
49.2500   27
49.3000   30
49.3500   27
49.4000   27
49.4500   32
49.5000   27
49.5500   24
49.6000   21
49.6500   30
49.7000   21
49.7500   24
49.8000   21
49.8500   26
49.9000   26
49.9500   44
50.0000   28
